Potential/V, Current/A
2.8,-4.53E-05
2.801,-3.29E-05
2.802,-2.58E-05
2.803,-2.08E-05
2.804,-1.71E-05
2.805,-1.41E-05
2.806,-1.16E-05
2.807,-9.69E-06
2.808,-8.06E-06
2.809,-6.69E-06
2.81,-5.55E-06
2.811,-4.54E-06
2.812,-3.72E-06
2.813,-2.97E-06
2.814,-2.36E-06
2.815,-1.81E-06
2.816,-1.31E-06
2.817,-8.89E-07
2.818,-5.09E-07
2.819,-1.96E-07
2.82,1.03E-07
2.821,3.53E-07
2.822,5.65E-07
2.823,7.78E-07
2.824,9.52E-07
2.825,1.11E-06
2.826,1.26E-06
2.827,1.38E-06
2.828,1.51E-06
2.829,1.60E-06
2.83,1.71E-06
2.831,1.81E-06
2.832,1.89E-06
2.833,1.95E-06
2.834,2.02E-06
2.835,2.07E-06
2.836,2.13E-06
2.837,2.18E-06
2.838,2.24E-06
2.839,2.27E-06
2.84,2.32E-06
2.841,2.35E-06
2.842,2.39E-06
2.843,2.41E-06
2.844,2.44E-06
2.845,2.46E-06
2.846,2.49E-06
2.847,2.50E-06
2.848,2.53E-06
2.849,2.55E-06
2.85,2.55E-06
2.851,2.56E-06
2.852,2.58E-06
2.853,2.59E-06
2.854,2.60E-06
2.855,2.61E-06
2.856,2.61E-06
2.857,2.63E-06
2.858,2.63E-06
2.859,2.63E-06
2.86,2.65E-06
2.861,2.65E-06
2.862,2.66E-06
2.863,2.68E-06
2.864,2.67E-06
2.865,2.66E-06
2.866,2.67E-06
2.867,2.66E-06
2.868,2.67E-06
2.869,2.66E-06
2.87,2.65E-06
2.871,2.66E-06
2.872,2.65E-06
2.873,2.64E-06
2.874,2.64E-06
2.875,2.64E-06
2.876,2.62E-06
2.877,2.64E-06
2.878,2.62E-06
2.879,2.63E-06
2.88,2.61E-06
2.881,2.61E-06
2.882,2.58E-06
2.883,2.60E-06
2.884,2.60E-06
2.885,2.58E-06
2.886,2.56E-06
2.887,2.56E-06
2.888,2.56E-06
2.889,2.54E-06
2.89,2.54E-06
2.891,2.53E-06
2.892,2.53E-06
2.893,2.50E-06
2.894,2.49E-06
2.895,2.49E-06
2.896,2.49E-06
2.897,2.48E-06
2.898,2.45E-06
2.899,2.46E-06
2.9,2.44E-06
2.901,2.44E-06
2.902,2.44E-06
2.903,2.42E-06
2.904,2.42E-06
2.905,2.40E-06
2.906,2.39E-06
2.907,2.40E-06
2.908,2.37E-06
2.909,2.37E-06
2.91,2.35E-06
2.911,2.34E-06
2.912,2.33E-06
2.913,2.32E-06
2.914,2.31E-06
2.915,2.31E-06
2.916,2.28E-06
2.917,2.28E-06
2.918,2.28E-06
2.919,2.26E-06
2.92,2.25E-06
2.921,2.24E-06
2.922,2.23E-06
2.923,2.24E-06
2.924,2.22E-06
2.925,2.20E-06
2.926,2.20E-06
2.927,2.20E-06
2.928,2.19E-06
2.929,2.17E-06
2.93,2.16E-06
2.931,2.17E-06
2.932,2.15E-06
2.933,2.15E-06
2.934,2.13E-06
2.935,2.12E-06
2.936,2.12E-06
2.937,2.11E-06
2.938,2.10E-06
2.939,2.11E-06
2.94,2.09E-06
2.941,2.09E-06
2.942,2.09E-06
2.943,2.08E-06
2.944,2.07E-06
2.945,2.06E-06
2.946,2.05E-06
2.947,2.06E-06
2.948,2.04E-06
2.949,2.04E-06
2.95,2.03E-06
2.951,2.03E-06
2.952,2.01E-06
2.953,2.02E-06
2.954,2.01E-06
2.955,2.00E-06
2.956,2.00E-06
2.957,1.99E-06
2.958,1.99E-06
2.959,2.00E-06
2.96,1.98E-06
2.961,1.97E-06
2.962,1.98E-06
2.963,1.97E-06
2.964,1.97E-06
2.965,1.98E-06
2.966,1.97E-06
2.967,1.97E-06
2.968,1.96E-06
2.969,1.95E-06
2.97,1.95E-06
2.971,1.95E-06
2.972,1.95E-06
2.973,1.95E-06
2.974,1.95E-06
2.975,1.94E-06
2.976,1.94E-06
2.977,1.93E-06
2.978,1.94E-06
2.979,1.93E-06
2.98,1.93E-06
2.981,1.92E-06
2.982,1.93E-06
2.983,1.92E-06
2.984,1.92E-06
2.985,1.93E-06
2.986,1.91E-06
2.987,1.91E-06
2.988,1.90E-06
2.989,1.91E-06
2.99,1.91E-06
2.991,1.90E-06
2.992,1.91E-06
2.993,1.91E-06
2.994,1.90E-06
2.995,1.90E-06
2.996,1.90E-06
2.997,1.89E-06
2.998,1.89E-06
2.999,1.89E-06
3,1.90E-06
3.001,1.90E-06
3.002,1.89E-06
3.003,1.89E-06
3.004,1.89E-06
3.005,1.89E-06
3.006,1.90E-06
3.007,1.89E-06
3.008,1.89E-06
3.009,1.88E-06
3.01,1.89E-06
3.011,1.88E-06
3.012,1.88E-06
3.013,1.89E-06
3.014,1.90E-06
3.015,1.87E-06
3.016,1.90E-06
3.017,1.87E-06
3.018,1.89E-06
3.019,1.89E-06
3.02,1.90E-06
3.021,1.88E-06
3.022,1.89E-06
3.023,1.89E-06
3.024,1.89E-06
3.025,1.89E-06
3.026,1.89E-06
3.027,1.89E-06
3.028,1.88E-06
3.029,1.90E-06
3.03,1.88E-06
3.031,1.90E-06
3.032,1.89E-06
3.033,1.88E-06
3.034,1.89E-06
3.035,1.90E-06
3.036,1.90E-06
3.037,1.89E-06
3.038,1.89E-06
3.039,1.89E-06
3.04,1.90E-06
3.041,1.89E-06
3.042,1.90E-06
3.043,1.89E-06
3.044,1.89E-06
3.045,1.90E-06
3.046,1.89E-06
3.047,1.90E-06
3.048,1.91E-06
3.049,1.89E-06
3.05,1.89E-06
3.051,1.90E-06
3.052,1.91E-06
3.053,1.90E-06
3.054,1.91E-06
3.055,1.90E-06
3.056,1.90E-06
3.057,1.91E-06
3.058,1.91E-06
3.059,1.90E-06
3.06,1.90E-06
3.061,1.90E-06
3.062,1.90E-06
3.063,1.91E-06
3.064,1.90E-06
3.065,1.90E-06
3.066,1.91E-06
3.067,1.91E-06
3.068,1.91E-06
3.069,1.91E-06
3.07,1.91E-06
3.071,1.91E-06
3.072,1.91E-06
3.073,1.91E-06
3.074,1.91E-06
3.075,1.92E-06
3.076,1.91E-06
3.077,1.90E-06
3.078,1.92E-06
3.079,1.91E-06
3.08,1.93E-06
3.081,1.90E-06
3.082,1.92E-06
3.083,1.92E-06
3.084,1.91E-06
3.085,1.91E-06
3.086,1.92E-06
3.087,1.92E-06
3.088,1.91E-06
3.089,1.91E-06
3.09,1.93E-06
3.091,1.92E-06
3.092,1.92E-06
3.093,1.91E-06
3.094,1.92E-06
3.095,1.91E-06
3.096,1.92E-06
3.097,1.91E-06
3.098,1.93E-06
3.099,1.93E-06
3.1,1.93E-06
3.101,1.91E-06
3.102,1.90E-06
3.103,1.92E-06
3.104,1.92E-06
3.105,1.92E-06
3.106,1.92E-06
3.107,1.90E-06
3.108,1.92E-06
3.109,1.93E-06
3.11,1.92E-06
3.111,1.92E-06
3.112,1.92E-06
3.113,1.92E-06
3.114,1.91E-06
3.115,1.91E-06
3.116,1.92E-06
3.117,1.92E-06
3.118,1.92E-06
3.119,1.91E-06
3.12,1.91E-06
3.121,1.93E-06
3.122,1.93E-06
3.123,1.93E-06
3.124,1.94E-06
3.125,1.93E-06
3.126,1.94E-06
3.127,1.92E-06
3.128,1.93E-06
3.129,1.93E-06
3.13,1.93E-06
3.131,1.93E-06
3.132,1.93E-06
3.133,1.95E-06
3.134,1.93E-06
3.135,1.93E-06
3.136,1.93E-06
3.137,1.94E-06
3.138,1.94E-06
3.139,1.94E-06
3.14,1.94E-06
3.141,1.94E-06
3.142,1.95E-06
3.143,1.95E-06
3.144,1.95E-06
3.145,1.95E-06
3.146,1.94E-06
3.147,1.97E-06
3.148,1.96E-06
3.149,1.97E-06
3.15,1.96E-06
3.151,1.96E-06
3.152,1.95E-06
3.153,1.97E-06
3.154,1.96E-06
3.155,1.96E-06
3.156,1.95E-06
3.157,1.97E-06
3.158,1.97E-06
3.159,1.97E-06
3.16,1.98E-06
3.161,1.98E-06
3.162,1.97E-06
3.163,1.98E-06
3.164,1.97E-06
3.165,1.98E-06
3.166,1.97E-06
3.167,1.97E-06
3.168,1.99E-06
3.169,1.99E-06
3.17,1.98E-06
3.171,2.00E-06
3.172,1.99E-06
3.173,1.99E-06
3.174,2.00E-06
3.175,2.00E-06
3.176,2.00E-06
3.177,2.00E-06
3.178,2.00E-06
3.179,2.00E-06
3.18,2.00E-06
3.181,2.00E-06
3.182,2.00E-06
3.183,2.00E-06
3.184,2.02E-06
3.185,2.01E-06
3.186,2.02E-06
3.187,2.01E-06
3.188,2.02E-06
3.189,2.03E-06
3.19,2.02E-06
3.191,2.02E-06
3.192,2.02E-06
3.193,2.02E-06
3.194,2.03E-06
3.195,2.03E-06
3.196,2.05E-06
3.197,2.04E-06
3.198,2.04E-06
3.199,2.05E-06
3.2,2.05E-06
3.201,2.04E-06
3.202,2.05E-06
3.203,2.07E-06
3.204,2.06E-06
3.205,2.07E-06
3.206,2.08E-06
3.207,2.08E-06
3.208,2.08E-06
3.209,2.07E-06
3.21,2.08E-06
3.211,2.10E-06
3.212,2.09E-06
3.213,2.09E-06
3.214,2.10E-06
3.215,2.11E-06
3.216,2.13E-06
3.217,2.11E-06
3.218,2.13E-06
3.219,2.12E-06
3.22,2.15E-06
3.221,2.13E-06
3.222,2.15E-06
3.223,2.14E-06
3.224,2.16E-06
3.225,2.16E-06
3.226,2.16E-06
3.227,2.18E-06
3.228,2.18E-06
3.229,2.18E-06
3.23,2.20E-06
3.231,2.20E-06
3.232,2.20E-06
3.233,2.22E-06
3.234,2.23E-06
3.235,2.23E-06
3.236,2.23E-06
3.237,2.25E-06
3.238,2.25E-06
3.239,2.27E-06
3.24,2.28E-06
3.241,2.28E-06
3.242,2.28E-06
3.243,2.29E-06
3.244,2.31E-06
3.245,2.30E-06
3.246,2.32E-06
3.247,2.33E-06
3.248,2.36E-06
3.249,2.36E-06
3.25,2.38E-06
3.251,2.39E-06
3.252,2.39E-06
3.253,2.40E-06
3.254,2.41E-06
3.255,2.42E-06
3.256,2.44E-06
3.257,2.44E-06
3.258,2.46E-06
3.259,2.48E-06
3.26,2.48E-06
3.261,2.49E-06
3.262,2.53E-06
3.263,2.53E-06
3.264,2.54E-06
3.265,2.55E-06
3.266,2.57E-06
3.267,2.58E-06
3.268,2.58E-06
3.269,2.62E-06
3.27,2.62E-06
3.271,2.64E-06
3.272,2.65E-06
3.273,2.66E-06
3.274,2.67E-06
3.275,2.69E-06
3.276,2.71E-06
3.277,2.72E-06
3.278,2.74E-06
3.279,2.77E-06
3.28,2.77E-06
3.281,2.77E-06
3.282,2.80E-06
3.283,2.80E-06
3.284,2.81E-06
3.285,2.83E-06
3.286,2.84E-06
3.287,2.84E-06
3.288,2.86E-06
3.289,2.86E-06
3.29,2.88E-06
3.291,2.87E-06
3.292,2.88E-06
3.293,2.89E-06
3.294,2.89E-06
3.295,2.89E-06
3.296,2.90E-06
3.297,2.92E-06
3.298,2.91E-06
3.299,2.90E-06
3.3,2.90E-06
3.301,2.90E-06
3.302,2.89E-06
3.303,2.90E-06
3.304,2.91E-06
3.305,2.89E-06
3.306,2.88E-06
3.307,2.89E-06
3.308,2.88E-06
3.309,2.88E-06
3.31,2.88E-06
3.311,2.87E-06
3.312,2.87E-06
3.313,2.83E-06
3.314,2.84E-06
3.315,2.82E-06
3.316,2.82E-06
3.317,2.81E-06
3.318,2.80E-06
3.319,2.79E-06
3.32,2.77E-06
3.321,2.75E-06
3.322,2.76E-06
3.323,2.74E-06
3.324,2.74E-06
3.325,2.73E-06
3.326,2.71E-06
3.327,2.70E-06
3.328,2.70E-06
3.329,2.67E-06
3.33,2.68E-06
3.331,2.64E-06
3.332,2.64E-06
3.333,2.63E-06
3.334,2.60E-06
3.335,2.60E-06
3.336,2.60E-06
3.337,2.57E-06
3.338,2.57E-06
3.339,2.57E-06
3.34,2.56E-06
3.341,2.55E-06
3.342,2.54E-06
3.343,2.52E-06
3.344,2.52E-06
3.345,2.49E-06
3.346,2.50E-06
3.347,2.47E-06
3.348,2.47E-06
3.349,2.47E-06
3.35,2.45E-06
3.351,2.44E-06
3.352,2.46E-06
3.353,2.45E-06
3.354,2.41E-06
3.355,2.43E-06
3.356,2.41E-06
3.357,2.40E-06
3.358,2.41E-06
3.359,2.39E-06
3.36,2.39E-06
3.361,2.38E-06
3.362,2.39E-06
3.363,2.38E-06
3.364,2.36E-06
3.365,2.39E-06
3.366,2.38E-06
3.367,2.36E-06
3.368,2.35E-06
3.369,2.36E-06
3.37,2.36E-06
3.371,2.35E-06
3.372,2.35E-06
3.373,2.36E-06
3.374,2.36E-06
3.375,2.35E-06
3.376,2.36E-06
3.377,2.36E-06
3.378,2.34E-06
3.379,2.36E-06
3.38,2.36E-06
3.381,2.36E-06
3.382,2.36E-06
3.383,2.36E-06
3.384,2.37E-06
3.385,2.36E-06
3.386,2.39E-06
3.387,2.38E-06
3.388,2.37E-06
3.389,2.38E-06
3.39,2.37E-06
3.391,2.37E-06
3.392,2.39E-06
3.393,2.40E-06
3.394,2.39E-06
3.395,2.38E-06
3.396,2.41E-06
3.397,2.43E-06
3.398,2.43E-06
3.399,2.44E-06
3.4,2.43E-06
3.401,2.45E-06
3.402,2.44E-06
3.403,2.47E-06
3.404,2.46E-06
3.405,2.48E-06
3.406,2.48E-06
3.407,2.49E-06
3.408,2.52E-06
3.409,2.52E-06
3.41,2.53E-06
3.411,2.52E-06
3.412,2.55E-06
3.413,2.56E-06
3.414,2.58E-06
3.415,2.58E-06
3.416,2.57E-06
3.417,2.60E-06
3.418,2.62E-06
3.419,2.62E-06
3.42,2.64E-06
3.421,2.64E-06
3.422,2.63E-06
3.423,2.67E-06
3.424,2.68E-06
3.425,2.67E-06
3.426,2.70E-06
3.427,2.71E-06
3.428,2.73E-06
3.429,2.72E-06
3.43,2.75E-06
3.431,2.75E-06
3.432,2.75E-06
3.433,2.74E-06
3.434,2.78E-06
3.435,2.79E-06
3.436,2.79E-06
3.437,2.80E-06
3.438,2.83E-06
3.439,2.84E-06
3.44,2.84E-06
3.441,2.84E-06
3.442,2.84E-06
3.443,2.88E-06
3.444,2.88E-06
3.445,2.90E-06
3.446,2.87E-06
3.447,2.91E-06
3.448,2.91E-06
3.449,2.91E-06
3.45,2.93E-06
3.451,2.94E-06
3.452,2.95E-06
3.453,2.96E-06
3.454,2.95E-06
3.455,2.97E-06
3.456,2.96E-06
3.457,2.97E-06
3.458,3.00E-06
3.459,2.99E-06
3.46,3.00E-06
3.461,3.00E-06
3.462,3.01E-06
3.463,3.02E-06
3.464,3.02E-06
3.465,3.02E-06
3.466,3.04E-06
3.467,3.03E-06
3.468,3.03E-06
3.469,3.03E-06
3.47,3.05E-06
3.471,3.05E-06
3.472,3.07E-06
3.473,3.05E-06
3.474,3.07E-06
3.475,3.06E-06
3.476,3.07E-06
3.477,3.08E-06
3.478,3.06E-06
3.479,3.08E-06
3.48,3.06E-06
3.481,3.07E-06
3.482,3.08E-06
3.483,3.09E-06
3.484,3.10E-06
3.485,3.09E-06
3.486,3.07E-06
3.487,3.09E-06
3.488,3.10E-06
3.489,3.09E-06
3.49,3.10E-06
3.491,3.10E-06
3.492,3.10E-06
3.493,3.10E-06
3.494,3.08E-06
3.495,3.09E-06
3.496,3.09E-06
3.497,3.08E-06
3.498,3.07E-06
3.499,3.08E-06
3.5,3.07E-06
3.501,3.09E-06
3.502,3.09E-06
3.503,3.07E-06
3.504,3.07E-06
3.505,3.08E-06
3.506,3.09E-06
3.507,3.08E-06
3.508,3.05E-06
3.509,3.08E-06
3.51,3.06E-06
3.511,3.07E-06
3.512,3.05E-06
3.513,3.07E-06
3.514,3.06E-06
3.515,3.06E-06
3.516,3.05E-06
3.517,3.07E-06
3.518,3.04E-06
3.519,3.06E-06
3.52,3.03E-06
3.521,3.05E-06
3.522,3.04E-06
3.523,3.05E-06
3.524,3.02E-06
3.525,3.05E-06
3.526,3.04E-06
3.527,3.03E-06
3.528,3.01E-06
3.529,3.03E-06
3.53,3.02E-06
3.531,3.02E-06
3.532,3.01E-06
3.533,3.01E-06
3.534,3.00E-06
3.535,3.00E-06
3.536,3.01E-06
3.537,2.99E-06
3.538,3.00E-06
3.539,2.98E-06
3.54,2.99E-06
3.541,2.99E-06
3.542,2.99E-06
3.543,2.98E-06
3.544,2.97E-06
3.545,2.98E-06
3.546,2.98E-06
3.547,2.96E-06
3.548,2.95E-06
3.549,2.95E-06
3.55,2.95E-06
3.551,2.95E-06
3.552,2.94E-06
3.553,2.95E-06
3.554,2.94E-06
3.555,2.92E-06
3.556,2.91E-06
3.557,2.91E-06
3.558,2.92E-06
3.559,2.91E-06
3.56,2.91E-06
3.561,2.92E-06
3.562,2.90E-06
3.563,2.90E-06
3.564,2.89E-06
3.565,2.90E-06
3.566,2.89E-06
3.567,2.89E-06
3.568,2.88E-06
3.569,2.88E-06
3.57,2.87E-06
3.571,2.87E-06
3.572,2.87E-06
3.573,2.86E-06
3.574,2.86E-06
3.575,2.85E-06
3.576,2.88E-06
3.577,2.87E-06
3.578,2.87E-06
3.579,2.87E-06
3.58,2.85E-06
3.581,2.84E-06
3.582,2.86E-06
3.583,2.86E-06
3.584,2.85E-06
3.585,2.83E-06
3.586,2.85E-06
3.587,2.83E-06
3.588,2.83E-06
3.589,2.84E-06
3.59,2.83E-06
3.591,2.83E-06
3.592,2.85E-06
3.593,2.84E-06
3.594,2.84E-06
3.595,2.85E-06
3.596,2.83E-06
3.597,2.82E-06
3.598,2.83E-06
3.599,2.82E-06
3.6,2.83E-06
3.601,2.85E-06
3.602,2.83E-06
3.603,2.85E-06
3.604,2.84E-06
3.605,2.83E-06
3.606,2.84E-06
3.607,2.84E-06
3.608,2.84E-06
3.609,2.83E-06
3.61,2.84E-06
3.611,2.84E-06
3.612,2.84E-06
3.613,2.85E-06
3.614,2.83E-06
3.615,2.84E-06
3.616,2.84E-06
3.617,2.83E-06
3.618,2.84E-06
3.619,2.85E-06
3.62,2.85E-06
3.621,2.86E-06
3.622,2.85E-06
3.623,2.84E-06
3.624,2.86E-06
3.625,2.88E-06
3.626,2.87E-06
3.627,2.88E-06
3.628,2.88E-06
3.629,2.87E-06
3.63,2.88E-06
3.631,2.89E-06
3.632,2.90E-06
3.633,2.90E-06
3.634,2.90E-06
3.635,2.90E-06
3.636,2.92E-06
3.637,2.93E-06
3.638,2.92E-06
3.639,2.91E-06
3.64,2.92E-06
3.641,2.93E-06
3.642,2.95E-06
3.643,2.94E-06
3.644,2.95E-06
3.645,2.95E-06
3.646,2.96E-06
3.647,2.95E-06
3.648,2.97E-06
3.649,2.97E-06
3.65,2.95E-06
3.651,2.98E-06
3.652,2.99E-06
3.653,2.99E-06
3.654,3.00E-06
3.655,2.99E-06
3.656,3.01E-06
3.657,3.00E-06
3.658,3.02E-06
3.659,3.03E-06
3.66,3.02E-06
3.661,3.02E-06
3.662,3.03E-06
3.663,3.04E-06
3.664,3.04E-06
3.665,3.05E-06
3.666,3.05E-06
3.667,3.05E-06
3.668,3.03E-06
3.669,3.05E-06
3.67,3.04E-06
3.671,3.04E-06
3.672,3.04E-06
3.673,3.03E-06
3.674,3.03E-06
3.675,3.04E-06
3.676,3.03E-06
3.677,3.05E-06
3.678,3.05E-06
3.679,3.04E-06
3.68,3.05E-06
3.681,3.07E-06
3.682,3.04E-06
3.683,3.05E-06
3.684,3.04E-06
3.685,3.04E-06
3.686,3.04E-06
3.687,3.03E-06
3.688,3.04E-06
3.689,3.05E-06
3.69,3.05E-06
3.691,3.05E-06
3.692,3.04E-06
3.693,3.06E-06
3.694,3.05E-06
3.695,3.05E-06
3.696,3.08E-06
3.697,3.07E-06
3.698,3.06E-06
3.699,3.09E-06
3.7,3.08E-06
3.701,3.09E-06
3.702,3.10E-06
3.703,3.10E-06
3.704,3.13E-06
3.705,3.12E-06
3.706,3.12E-06
3.707,3.11E-06
3.708,3.13E-06
3.709,3.15E-06
3.71,3.14E-06
3.711,3.16E-06
3.712,3.16E-06
3.713,3.18E-06
3.714,3.17E-06
3.715,3.20E-06
3.716,3.18E-06
3.717,3.19E-06
3.718,3.23E-06
3.719,3.24E-06
3.72,3.26E-06
3.721,3.27E-06
3.722,3.26E-06
3.723,3.26E-06
3.724,3.27E-06
3.725,3.30E-06
3.726,3.30E-06
3.727,3.31E-06
3.728,3.32E-06
3.729,3.33E-06
3.73,3.35E-06
3.731,3.36E-06
3.732,3.36E-06
3.733,3.39E-06
3.734,3.40E-06
3.735,3.40E-06
3.736,3.43E-06
3.737,3.43E-06
3.738,3.42E-06
3.739,3.43E-06
3.74,3.48E-06
3.741,3.49E-06
3.742,3.50E-06
3.743,3.53E-06
3.744,3.53E-06
3.745,3.55E-06
3.746,3.59E-06
3.747,3.58E-06
3.748,3.60E-06
3.749,3.61E-06
3.75,3.61E-06
3.751,3.63E-06
3.752,3.65E-06
3.753,3.68E-06
3.754,3.69E-06
3.755,3.71E-06
3.756,3.72E-06
3.757,3.74E-06
3.758,3.75E-06
3.759,3.78E-06
3.76,3.80E-06
3.761,3.81E-06
3.762,3.85E-06
3.763,3.85E-06
3.764,3.89E-06
3.765,3.93E-06
3.766,3.96E-06
3.767,3.98E-06
3.768,4.02E-06
3.769,4.01E-06
3.77,4.06E-06
3.771,4.09E-06
3.772,4.11E-06
3.773,4.14E-06
3.774,4.16E-06
3.775,4.19E-06
3.776,4.21E-06
3.777,4.24E-06
3.778,4.29E-06
3.779,4.32E-06
3.78,4.34E-06
3.781,4.39E-06
3.782,4.40E-06
3.783,4.43E-06
3.784,4.46E-06
3.785,4.51E-06
3.786,4.53E-06
3.787,4.54E-06
3.788,4.60E-06
3.789,4.63E-06
3.79,4.66E-06
3.791,4.68E-06
3.792,4.71E-06
3.793,4.75E-06
3.794,4.79E-06
3.795,4.83E-06
3.796,4.86E-06
3.797,4.90E-06
3.798,4.92E-06
3.799,4.96E-06
3.8,4.99E-06
3.801,5.05E-06
3.802,5.10E-06
3.803,5.12E-06
3.804,5.15E-06
3.805,5.20E-06
3.806,5.24E-06
3.807,5.26E-06
3.808,5.32E-06
3.809,5.36E-06
3.81,5.40E-06
3.811,5.44E-06
3.812,5.46E-06
3.813,5.52E-06
3.814,5.56E-06
3.815,5.59E-06
3.816,5.65E-06
3.817,5.68E-06
3.818,5.74E-06
3.819,5.75E-06
3.82,5.82E-06
3.821,5.88E-06
3.822,5.91E-06
3.823,5.95E-06
3.824,6.00E-06
3.825,6.03E-06
3.826,6.08E-06
3.827,6.14E-06
3.828,6.16E-06
3.829,6.20E-06
3.83,6.26E-06
3.831,6.30E-06
3.832,6.36E-06
3.833,6.39E-06
3.834,6.44E-06
3.835,6.50E-06
3.836,6.57E-06
3.837,6.60E-06
3.838,6.64E-06
3.839,6.70E-06
3.84,6.74E-06
3.841,6.82E-06
3.842,6.83E-06
3.843,6.89E-06
3.844,6.94E-06
3.845,7.02E-06
3.846,7.05E-06
3.847,7.11E-06
3.848,7.16E-06
3.849,7.23E-06
3.85,7.28E-06
3.851,7.33E-06
3.852,7.38E-06
3.853,7.45E-06
3.854,7.49E-06
3.855,7.55E-06
3.856,7.60E-06
3.857,7.67E-06
3.858,7.74E-06
3.859,7.78E-06
3.86,7.84E-06
3.861,7.90E-06
3.862,7.97E-06
3.863,8.03E-06
3.864,8.10E-06
3.865,8.15E-06
3.866,8.22E-06
3.867,8.27E-06
3.868,8.33E-06
3.869,8.38E-06
3.87,8.45E-06
3.871,8.52E-06
3.872,8.61E-06
3.873,8.66E-06
3.874,8.71E-06
3.875,8.79E-06
3.876,8.85E-06
3.877,8.93E-06
3.878,9.00E-06
3.879,9.04E-06
3.88,9.13E-06
3.881,9.21E-06
3.882,9.26E-06
3.883,9.34E-06
3.884,9.40E-06
3.885,9.47E-06
3.886,9.53E-06
3.887,9.62E-06
3.888,9.68E-06
3.889,9.75E-06
3.89,9.84E-06
3.891,9.90E-06
3.892,9.95E-06
3.893,1.01E-05
3.894,1.01E-05
3.895,1.02E-05
3.896,1.03E-05
3.897,1.03E-05
3.898,1.04E-05
3.899,1.05E-05
3.9,1.06E-05
3.901,1.07E-05
3.902,1.07E-05
3.903,1.08E-05
3.904,1.09E-05
3.905,1.10E-05
3.906,1.10E-05
3.907,1.11E-05
3.908,1.12E-05
3.909,1.13E-05
3.91,1.14E-05
3.911,1.14E-05
3.912,1.15E-05
3.913,1.16E-05
3.914,1.17E-05
3.915,1.18E-05
3.916,1.18E-05
3.917,1.19E-05
3.918,1.20E-05
3.919,1.21E-05
3.92,1.22E-05
3.921,1.22E-05
3.922,1.23E-05
3.923,1.24E-05
3.924,1.25E-05
3.925,1.26E-05
3.926,1.26E-05
3.927,1.27E-05
3.928,1.28E-05
3.929,1.29E-05
3.93,1.29E-05
3.931,1.31E-05
3.932,1.31E-05
3.933,1.32E-05
3.934,1.33E-05
3.935,1.34E-05
3.936,1.35E-05
3.937,1.35E-05
3.938,1.36E-05
3.939,1.37E-05
3.94,1.38E-05
3.941,1.39E-05
3.942,1.40E-05
3.943,1.41E-05
3.944,1.42E-05
3.945,1.43E-05
3.946,1.43E-05
3.947,1.44E-05
3.948,1.45E-05
3.949,1.46E-05
3.95,1.47E-05
3.951,1.47E-05
3.952,1.48E-05
3.953,1.49E-05
3.954,1.50E-05
3.955,1.50E-05
3.956,1.51E-05
3.957,1.52E-05
3.958,1.53E-05
3.959,1.54E-05
3.96,1.55E-05
3.961,1.55E-05
3.962,1.56E-05
3.963,1.57E-05
3.964,1.57E-05
3.965,1.58E-05
3.966,1.59E-05
3.967,1.60E-05
3.968,1.61E-05
3.969,1.62E-05
3.97,1.62E-05
3.971,1.63E-05
3.972,1.63E-05
3.973,1.64E-05
3.974,1.65E-05
3.975,1.66E-05
3.976,1.67E-05
3.977,1.67E-05
3.978,1.68E-05
3.979,1.69E-05
3.98,1.69E-05
3.981,1.70E-05
3.982,1.71E-05
3.983,1.71E-05
3.984,1.72E-05
3.985,1.73E-05
3.986,1.73E-05
3.987,1.74E-05
3.988,1.75E-05
3.989,1.76E-05
3.99,1.76E-05
3.991,1.77E-05
3.992,1.77E-05
3.993,1.78E-05
3.994,1.79E-05
3.995,1.79E-05
3.996,1.80E-05
3.997,1.81E-05
3.998,1.81E-05
3.999,1.82E-05
4,1.82E-05
4.001,1.83E-05
4.002,1.84E-05
4.003,1.84E-05
4.004,1.85E-05
4.005,1.85E-05
4.006,1.86E-05
4.007,1.86E-05
4.008,1.87E-05
4.009,1.88E-05
4.01,1.88E-05
4.011,1.89E-05
4.012,1.89E-05
4.013,1.90E-05
4.014,1.91E-05
4.015,1.91E-05
4.016,1.92E-05
4.017,1.92E-05
4.018,1.92E-05
4.019,1.93E-05
4.02,1.93E-05
4.021,1.94E-05
4.022,1.95E-05
4.023,1.95E-05
4.024,1.96E-05
4.025,1.96E-05
4.026,1.97E-05
4.027,1.97E-05
4.028,1.97E-05
4.029,1.98E-05
4.03,1.98E-05
4.031,1.99E-05
4.032,1.99E-05
4.033,2.00E-05
4.034,2.00E-05
4.035,2.01E-05
4.036,2.01E-05
4.037,2.02E-05
4.038,2.02E-05
4.039,2.03E-05
4.04,2.03E-05
4.041,2.03E-05
4.042,2.04E-05
4.043,2.04E-05
4.044,2.04E-05
4.045,2.04E-05
4.046,2.05E-05
4.047,2.05E-05
4.048,2.06E-05
4.049,2.06E-05
4.05,2.06E-05
4.051,2.06E-05
4.052,2.07E-05
4.053,2.07E-05
4.054,2.07E-05
4.055,2.08E-05
